,V,J,Pe,Ct,Cp,PWR,Torque,Thrust,PWR,Torque,Thrust,THR/PWR,Mach,Reyn,RPM
0,(mph),(Adv_Ratio),-,-,-,(Hp),(In-Lbf),(Lbf),(W),(N-m),(N),(g/W),-,-,RPM
1,0.0,0.00,0.0000,0.2124,0.1163,0.001,0.035,0.044,0.412,0.004,0.197,48.874,0.04,10575.,1000
2,0.3,0.04,0.0636,0.2113,0.1193,0.001,0.036,0.044,0.423,0.004,0.196,47.389,0.04,10576.,1000
3,0.6,0.07,0.1233,0.2099,0.1223,0.001,0.037,0.044,0.433,0.004,0.195,45.942,0.04,10580.,1000
4,0.9,0.11,0.1792,0.2080,0.1250,0.001,0.037,0.043,0.443,0.004,0.193,44.538,0.04,10586.,1000
5,1.2,0.14,0.2317,0.2056,0.1274,0.001,0.038,0.043,0.451,0.004,0.191,43.177,0.04,10595.,1000
6,1.5,0.18,0.2808,0.2026,0.1295,0.001,0.039,0.042,0.459,0.004,0.188,41.866,0.04,10606.,1000
7,1.8,0.22,0.3268,0.1991,0.1313,0.001,0.039,0.042,0.465,0.004,0.185,40.598,0.04,10619.,1000
8,2.1,0.25,0.3697,0.1951,0.1326,0.001,0.040,0.041,0.470,0.004,0.181,39.365,0.04,10635.,1000
9,2.4,0.29,0.4095,0.1905,0.1336,0.001,0.040,0.040,0.473,0.005,0.177,38.161,0.04,10653.,1000
10,2.8,0.32,0.4464,0.1853,0.1341,0.001,0.040,0.039,0.475,0.005,0.172,36.976,0.04,10674.,1000
11,3.1,0.36,0.4802,0.1796,0.1343,0.001,0.040,0.038,0.476,0.005,0.167,35.799,0.04,10697.,1000
12,3.4,0.39,0.5111,0.1732,0.1339,0.001,0.040,0.036,0.474,0.005,0.161,34.635,0.04,10722.,1000
13,3.7,0.43,0.5392,0.1661,0.1327,0.001,0.040,0.035,0.470,0.004,0.154,33.496,0.04,10750.,1000
14,4.0,0.47,0.5648,0.1580,0.1306,0.001,0.039,0.033,0.463,0.004,0.147,32.387,0.04,10780.,1000
15,4.3,0.50,0.5876,0.1497,0.1281,0.001,0.038,0.031,0.454,0.004,0.139,31.289,0.04,10813.,1000
16,4.6,0.54,0.6076,0.1412,0.1252,0.001,0.037,0.030,0.443,0.004,0.131,30.197,0.04,10848.,1000
17,4.9,0.57,0.6247,0.1325,0.1218,0.001,0.036,0.028,0.431,0.004,0.123,29.106,0.04,10885.,1000
18,5.2,0.61,0.6394,0.1235,0.1179,0.001,0.035,0.026,0.418,0.004,0.115,28.038,0.04,10924.,1000
19,5.5,0.65,0.6541,0.1144,0.1130,0.001,0.034,0.024,0.400,0.004,0.106,27.090,0.04,10966.,1000
20,5.8,0.68,0.6664,0.1050,0.1075,0.001,0.032,0.022,0.381,0.004,0.098,26.144,0.04,11009.,1000
21,6.1,0.72,0.6754,0.0955,0.1015,0.000,0.030,0.020,0.359,0.003,0.089,25.173,0.04,11055.,1000
22,6.4,0.75,0.6807,0.0857,0.0949,0.000,0.028,0.018,0.336,0.003,0.080,24.163,0.04,11103.,1000
23,6.7,0.79,0.6815,0.0757,0.0877,0.000,0.026,0.016,0.311,0.003,0.070,23.093,0.04,11153.,1000
24,7.0,0.83,0.6767,0.0655,0.0799,0.000,0.024,0.014,0.283,0.003,0.061,21.933,0.04,11206.,1000
25,7.3,0.86,0.6642,0.0551,0.0715,0.000,0.021,0.012,0.253,0.002,0.051,20.630,0.04,11260.,1000
26,7.6,0.90,0.6395,0.0445,0.0625,0.000,0.019,0.009,0.221,0.002,0.041,19.069,0.04,11316.,1000
27,8.0,0.93,0.5938,0.0337,0.0529,0.000,0.016,0.007,0.187,0.002,0.031,17.025,0.04,11375.,1000
28,8.3,0.97,0.5101,0.0226,0.0429,0.000,0.013,0.005,0.152,0.001,0.021,14.084,0.04,11435.,1000
29,8.6,1.01,0.3512,0.0113,0.0324,0.000,0.010,0.002,0.115,0.001,0.011,9.349,0.04,11497.,1000
30,8.9,1.04,-0.0067,-0.0001,0.0213,0.000,0.006,0.000,0.076,0.001,0.000,-0.172,0.04,11561.,1000
31,0.0,0.00,0.0000,0.2124,0.1163,0.004,0.139,0.178,3.296,0.016,0.790,24.435,0.07,21150.,2000
32,0.6,0.04,0.0635,0.2114,0.1194,0.005,0.143,0.177,3.383,0.016,0.786,23.693,0.07,21152.,2000
33,1.2,0.07,0.1232,0.2100,0.1223,0.005,0.147,0.176,3.467,0.017,0.781,22.970,0.07,21160.,2000
34,1.8,0.11,0.1791,0.2081,0.1251,0.005,0.150,0.174,3.544,0.017,0.774,22.268,0.07,21172.,2000
35,2.4,0.14,0.2315,0.2057,0.1275,0.005,0.153,0.172,3.613,0.017,0.765,21.589,0.07,21189.,2000
36,3.1,0.18,0.2806,0.2028,0.1296,0.005,0.155,0.170,3.673,0.018,0.754,20.933,0.07,21211.,2000
37,3.7,0.22,0.3266,0.1992,0.1313,0.005,0.157,0.167,3.722,0.018,0.741,20.299,0.07,21238.,2000
38,4.3,0.25,0.3694,0.1952,0.1327,0.005,0.159,0.163,3.761,0.018,0.726,19.683,0.07,21270.,2000
39,4.9,0.29,0.4093,0.1906,0.1337,0.005,0.160,0.159,3.788,0.018,0.709,19.082,0.07,21306.,2000
40,5.5,0.32,0.4462,0.1855,0.1342,0.005,0.161,0.155,3.804,0.018,0.690,18.491,0.07,21348.,2000
41,6.1,0.36,0.4800,0.1798,0.1344,0.005,0.161,0.150,3.808,0.018,0.668,17.902,0.07,21394.,2000
42,6.7,0.39,0.5109,0.1734,0.1340,0.005,0.160,0.145,3.796,0.018,0.645,17.321,0.07,21445.,2000
43,7.3,0.43,0.5390,0.1662,0.1328,0.005,0.159,0.139,3.763,0.018,0.618,16.751,0.07,21500.,2000
44,8.0,0.47,0.5646,0.1582,0.1307,0.005,0.157,0.132,3.704,0.018,0.588,16.197,0.07,21560.,2000
45,8.6,0.50,0.5874,0.1499,0.1282,0.005,0.154,0.125,3.633,0.017,0.558,15.649,0.07,21625.,2000
46,9.2,0.54,0.6074,0.1414,0.1253,0.005,0.150,0.118,3.550,0.017,0.526,15.103,0.07,21695.,2000
47,9.8,0.57,0.6246,0.1327,0.1219,0.005,0.146,0.111,3.456,0.016,0.493,14.558,0.07,21769.,2000
48,10.4,0.61,0.6393,0.1237,0.1180,0.004,0.141,0.103,3.344,0.016,0.460,14.024,0.07,21847.,2000
49,11.0,0.65,0.6540,0.1145,0.1131,0.004,0.135,0.096,3.205,0.015,0.426,13.551,0.07,21930.,2000
50,11.6,0.68,0.6663,0.1052,0.1077,0.004,0.129,0.088,3.051,0.015,0.391,13.078,0.07,22017.,2000
51,12.2,0.72,0.6753,0.0956,0.1016,0.004,0.122,0.080,2.880,0.014,0.356,12.593,0.07,22109.,2000
52,12.8,0.75,0.6807,0.0859,0.0951,0.004,0.114,0.072,2.694,0.013,0.319,12.089,0.07,22205.,2000
53,13.5,0.79,0.6816,0.0759,0.0879,0.003,0.105,0.063,2.490,0.012,0.282,11.555,0.07,22305.,2000
54,14.1,0.83,0.6769,0.0657,0.0801,0.003,0.096,0.055,2.270,0.011,0.244,10.976,0.07,22410.,2000
55,14.7,0.86,0.6645,0.0553,0.0717,0.003,0.086,0.046,2.031,0.010,0.206,10.326,0.07,22518.,2000
56,15.3,0.90,0.6400,0.0447,0.0626,0.002,0.075,0.037,1.775,0.008,0.166,9.548,0.07,22631.,2000
57,15.9,0.93,0.5946,0.0338,0.0531,0.002,0.064,0.028,1.504,0.007,0.126,8.530,0.07,22747.,2000
58,16.5,0.97,0.5115,0.0228,0.0431,0.002,0.052,0.019,1.221,0.006,0.085,7.065,0.07,22868.,2000
59,17.1,1.00,0.3538,0.0115,0.0326,0.001,0.039,0.010,0.923,0.004,0.043,4.713,0.07,22992.,2000
60,17.7,1.04,-0.0005,0.0000,0.0215,0.001,0.026,0.000,0.608,0.003,0.000,-0.007,0.08,23120.,2000
61,0.0,0.00,0.0000,0.2125,0.1164,0.015,0.314,0.400,11.128,0.035,1.778,16.295,0.11,31725.,3000
62,0.9,0.04,0.0635,0.2115,0.1194,0.015,0.322,0.398,11.423,0.036,1.770,15.800,0.11,31729.,3000
63,1.8,0.07,0.1232,0.2102,0.1224,0.016,0.330,0.395,11.707,0.037,1.759,15.317,0.11,31740.,3000
64,2.8,0.11,0.1791,0.2083,0.1252,0.016,0.337,0.392,11.971,0.038,1.743,14.849,0.11,31758.,3000
65,3.7,0.14,0.2316,0.2060,0.1276,0.016,0.344,0.387,12.206,0.039,1.723,14.395,0.11,31784.,3000
66,4.6,0.18,0.2807,0.2030,0.1298,0.017,0.350,0.382,12.410,0.039,1.699,13.958,0.11,31817.,3000
67,5.5,0.22,0.3266,0.1995,0.1315,0.017,0.354,0.375,12.577,0.040,1.669,13.535,0.11,31857.,3000
68,6.4,0.25,0.3694,0.1955,0.1329,0.017,0.358,0.368,12.710,0.040,1.636,13.124,0.11,31905.,3000
69,7.3,0.29,0.4093,0.1909,0.1339,0.017,0.361,0.359,12.804,0.041,1.598,12.723,0.11,31959.,3000
70,8.3,0.32,0.4462,0.1858,0.1344,0.017,0.362,0.349,12.857,0.041,1.555,12.329,0.11,32021.,3000
71,9.2,0.36,0.4800,0.1800,0.1345,0.017,0.363,0.339,12.868,0.041,1.506,11.937,0.11,32091.,3000
72,10.1,0.39,0.5109,0.1737,0.1342,0.017,0.362,0.327,12.832,0.041,1.453,11.549,0.11,32167.,3000
73,11.0,0.43,0.5390,0.1665,0.1330,0.017,0.358,0.313,12.721,0.040,1.393,11.169,0.11,32250.,3000
74,11.9,0.47,0.5646,0.1585,0.1309,0.017,0.353,0.298,12.521,0.040,1.326,10.800,0.11,32340.,3000
75,12.8,0.50,0.5875,0.1502,0.1284,0.016,0.346,0.282,12.279,0.039,1.256,10.434,0.11,32438.,3000
76,13.8,0.54,0.6075,0.1416,0.1255,0.016,0.338,0.266,12.000,0.038,1.185,10.071,0.11,32542.,3000
77,14.7,0.57,0.6246,0.1329,0.1221,0.016,0.329,0.250,11.679,0.037,1.112,9.707,0.11,32653.,3000
78,15.6,0.61,0.6393,0.1239,0.1182,0.015,0.318,0.233,11.304,0.036,1.037,9.352,0.11,32770.,3000
79,16.5,0.65,0.6541,0.1148,0.1133,0.015,0.305,0.216,10.835,0.034,0.960,9.036,0.11,32895.,3000
80,17.4,0.68,0.6664,0.1054,0.1078,0.014,0.290,0.198,10.311,0.033,0.882,8.721,0.11,33026.,3000
81,18.3,0.72,0.6754,0.0958,0.1018,0.013,0.274,0.180,9.734,0.031,0.802,8.398,0.11,33163.,3000
82,19.3,0.75,0.6808,0.0860,0.0952,0.012,0.256,0.162,9.104,0.029,0.720,8.062,0.11,33307.,3000
83,20.2,0.79,0.6817,0.0760,0.0880,0.011,0.237,0.143,8.417,0.027,0.636,7.706,0.11,33457.,3000
84,21.1,0.83,0.6770,0.0658,0.0802,0.010,0.216,0.124,7.671,0.024,0.551,7.320,0.11,33614.,3000
85,22.0,0.86,0.6647,0.0554,0.0718,0.009,0.193,0.104,6.863,0.022,0.463,6.887,0.11,33777.,3000
86,22.9,0.90,0.6402,0.0448,0.0627,0.008,0.169,0.084,5.998,0.019,0.375,6.368,0.11,33946.,3000
87,23.8,0.93,0.5948,0.0339,0.0531,0.007,0.143,0.064,5.083,0.016,0.284,5.689,0.11,34120.,3000
88,24.8,0.97,0.5118,0.0228,0.0431,0.006,0.116,0.043,4.126,0.013,0.191,4.714,0.11,34301.,3000
89,25.7,1.00,0.3541,0.0115,0.0326,0.004,0.088,0.022,3.118,0.010,0.096,3.145,0.11,34488.,3000
90,26.6,1.04,-0.0004,0.0000,0.0215,0.003,0.058,0.000,2.056,0.007,0.000,-0.003,0.11,34680.,3000
91,0.0,0.00,0.0000,0.2126,0.1164,0.035,0.558,0.711,26.395,0.063,3.163,12.219,0.14,42300.,4000
92,1.2,0.04,0.0635,0.2117,0.1195,0.036,0.573,0.708,27.099,0.065,3.149,11.848,0.14,42305.,4000
93,2.4,0.07,0.1232,0.2103,0.1225,0.037,0.587,0.703,27.779,0.066,3.129,11.485,0.14,42320.,4000
94,3.7,0.11,0.1791,0.2085,0.1253,0.038,0.600,0.697,28.408,0.068,3.102,11.134,0.14,42344.,4000
95,4.9,0.14,0.2315,0.2062,0.1278,0.039,0.612,0.689,28.971,0.069,3.067,10.794,0.14,42378.,4000
96,6.1,0.18,0.2806,0.2033,0.1299,0.040,0.622,0.680,29.457,0.070,3.023,10.466,0.14,42422.,4000
97,7.3,0.22,0.3265,0.1998,0.1317,0.040,0.631,0.668,29.855,0.071,2.972,10.150,0.14,42476.,4000
98,8.6,0.25,0.3694,0.1958,0.1331,0.040,0.638,0.655,30.171,0.072,2.912,9.841,0.14,42539.,4000
99,9.8,0.29,0.4093,0.1912,0.1341,0.041,0.642,0.639,30.396,0.073,2.844,9.541,0.14,42613.,4000
100,11.0,0.32,0.4462,0.1861,0.1347,0.041,0.645,0.622,30.525,0.073,2.768,9.245,0.14,42695.,4000
101,12.2,0.36,0.4800,0.1803,0.1348,0.041,0.646,0.603,30.559,0.073,2.682,8.951,0.14,42787.,4000
102,13.5,0.39,0.5108,0.1740,0.1344,0.041,0.644,0.582,30.468,0.073,2.588,8.660,0.14,42889.,4000
103,14.7,0.43,0.5389,0.1668,0.1332,0.041,0.638,0.558,30.204,0.072,2.481,8.375,0.14,43000.,4000
104,15.9,0.47,0.5645,0.1587,0.1311,0.040,0.628,0.531,29.729,0.071,2.361,8.099,0.14,43121.,4000
105,17.1,0.50,0.5874,0.1504,0.1286,0.039,0.616,0.503,29.157,0.070,2.237,7.825,0.14,43250.,4000
106,18.3,0.54,0.6074,0.1419,0.1257,0.038,0.602,0.474,28.492,0.068,2.110,7.552,0.14,43389.,4000
107,19.6,0.57,0.6245,0.1331,0.1223,0.037,0.586,0.445,27.729,0.066,1.980,7.280,0.15,43537.,4000
108,20.8,0.61,0.6393,0.1241,0.1184,0.036,0.567,0.415,26.841,0.064,1.846,7.013,0.15,43694.,4000
109,22.0,0.65,0.6541,0.1149,0.1135,0.034,0.544,0.384,25.724,0.061,1.710,6.777,0.15,43860.,4000
110,23.2,0.68,0.6664,0.1055,0.1080,0.033,0.517,0.353,24.475,0.058,1.570,6.541,0.15,44034.,4000
111,24.5,0.72,0.6755,0.0960,0.1019,0.031,0.488,0.321,23.106,0.055,1.427,6.299,0.15,44218.,4000
112,25.7,0.75,0.6809,0.0862,0.0953,0.029,0.457,0.288,21.610,0.052,1.282,6.047,0.15,44410.,4000
113,26.9,0.79,0.6819,0.0761,0.0881,0.027,0.422,0.255,19.976,0.048,1.132,5.780,0.15,44610.,4000
114,28.1,0.83,0.6772,0.0659,0.0803,0.024,0.385,0.220,18.202,0.043,0.980,5.491,0.15,44819.,4000
115,29.4,0.86,0.6648,0.0555,0.0718,0.022,0.344,0.185,16.282,0.039,0.825,5.166,0.15,45036.,4000
116,30.6,0.90,0.6404,0.0448,0.0628,0.019,0.301,0.150,14.233,0.034,0.667,4.777,0.15,45261.,4000
117,31.8,0.93,0.5949,0.0339,0.0532,0.016,0.255,0.113,12.057,0.029,0.505,4.267,0.15,45494.,4000
118,33.0,0.97,0.5115,0.0228,0.0431,0.013,0.207,0.076,9.779,0.023,0.339,3.533,0.15,45735.,4000
119,34.2,1.00,0.3535,0.0115,0.0326,0.010,0.156,0.038,7.386,0.018,0.171,2.355,0.15,45984.,4000
120,35.5,1.04,-0.0012,0.0000,0.0215,0.007,0.103,0.000,4.874,0.012,0.000,-0.008,0.15,46240.,4000
121,0.0,0.00,0.0000,0.2128,0.1165,0.069,0.872,1.112,51.601,0.099,4.946,9.773,0.18,52875.,5000
122,1.5,0.04,0.0635,0.2119,0.1197,0.071,0.896,1.107,52.987,0.101,4.924,9.476,0.18,52881.,5000
123,3.1,0.07,0.1232,0.2106,0.1227,0.073,0.918,1.100,54.328,0.104,4.894,9.186,0.18,52899.,5000
124,4.6,0.11,0.1791,0.2088,0.1255,0.075,0.939,1.091,55.572,0.106,4.853,8.905,0.18,52930.,5000
125,6.1,0.14,0.2315,0.2065,0.1280,0.076,0.958,1.079,56.684,0.108,4.799,8.633,0.18,52973.,5000
126,7.6,0.18,0.2806,0.2036,0.1302,0.077,0.974,1.064,57.636,0.110,4.731,8.371,0.18,53028.,5000
127,9.2,0.22,0.3265,0.2001,0.1320,0.078,0.988,1.046,58.426,0.112,4.651,8.117,0.18,53095.,5000
128,10.7,0.25,0.3694,0.1961,0.1334,0.079,0.998,1.025,59.049,0.113,4.558,7.871,0.18,53174.,5000
129,12.2,0.29,0.4092,0.1916,0.1344,0.080,1.006,1.001,59.492,0.114,4.452,7.631,0.18,53266.,5000
130,13.8,0.32,0.4461,0.1864,0.1349,0.080,1.010,0.974,59.747,0.114,4.332,7.394,0.18,53369.,5000
131,15.3,0.36,0.4799,0.1807,0.1351,0.080,1.011,0.944,59.813,0.114,4.199,7.159,0.18,53484.,5000
132,16.8,0.39,0.5107,0.1743,0.1347,0.080,1.008,0.911,59.636,0.114,4.051,6.926,0.18,53612.,5000
133,18.3,0.43,0.5389,0.1671,0.1335,0.079,0.999,0.873,59.116,0.113,3.884,6.699,0.18,53750.,5000
134,19.9,0.47,0.5645,0.1590,0.1314,0.078,0.984,0.831,58.187,0.111,3.696,6.478,0.18,53901.,5000
135,21.4,0.50,0.5874,0.1507,0.1289,0.077,0.965,0.787,57.068,0.109,3.503,6.258,0.18,54063.,5000
136,22.9,0.54,0.6074,0.1421,0.1259,0.075,0.943,0.743,55.765,0.106,3.303,6.040,0.18,54237.,5000
137,24.5,0.57,0.6245,0.1333,0.1226,0.073,0.917,0.697,54.271,0.104,3.099,5.823,0.18,54422.,5000
138,26.0,0.61,0.6393,0.1243,0.1186,0.070,0.888,0.650,52.521,0.100,2.889,5.610,0.18,54618.,5000
139,27.5,0.65,0.6542,0.1151,0.1137,0.067,0.851,0.602,50.333,0.096,2.676,5.422,0.18,54825.,5000
140,29.1,0.68,0.6665,0.1057,0.1082,0.064,0.810,0.553,47.893,0.091,2.458,5.233,0.18,55044.,5000
141,30.6,0.72,0.6756,0.0961,0.1021,0.061,0.764,0.502,45.211,0.086,2.234,5.039,0.18,55273.,5000
142,32.1,0.75,0.6811,0.0863,0.0955,0.057,0.715,0.451,42.274,0.081,2.006,4.838,0.18,55513.,5000
143,33.6,0.79,0.6820,0.0763,0.0883,0.052,0.661,0.398,39.077,0.075,1.772,4.625,0.18,55763.,5000
144,35.2,0.83,0.6774,0.0660,0.0804,0.048,0.602,0.345,35.612,0.068,1.534,4.393,0.18,56024.,5000
145,36.7,0.86,0.6651,0.0556,0.0719,0.043,0.539,0.290,31.857,0.061,1.291,4.134,0.19,56296.,5000
146,38.2,0.90,0.6406,0.0449,0.0629,0.037,0.471,0.235,27.834,0.053,1.043,3.823,0.19,56577.,5000
147,39.8,0.93,0.5953,0.0340,0.0533,0.032,0.399,0.178,23.585,0.045,0.790,3.415,0.19,56869.,5000
148,41.3,0.97,0.5123,0.0229,0.0432,0.026,0.324,0.119,19.141,0.037,0.531,2.830,0.19,57170.,5000
149,42.8,1.00,0.3538,0.0115,0.0326,0.019,0.244,0.060,14.447,0.028,0.267,1.885,0.19,57481.,5000
150,44.3,1.04,-0.0017,0.0000,0.0215,0.013,0.161,0.000,9.519,0.018,-0.001,-0.009,0.19,57802.,5000
151,0.0,0.00,0.0000,0.2124,0.1165,0.119,1.255,1.598,89.109,0.142,7.109,8.135,0.21,63450.,6000
152,1.8,0.04,0.0635,0.2115,0.1196,0.123,1.290,1.592,91.543,0.146,7.079,7.886,0.21,63457.,6000
153,3.7,0.07,0.1231,0.2103,0.1227,0.126,1.323,1.582,93.903,0.149,7.038,7.643,0.21,63479.,6000
154,5.5,0.11,0.1790,0.2086,0.1256,0.129,1.354,1.570,96.095,0.153,6.981,7.408,0.21,63516.,6000
155,7.3,0.14,0.2314,0.2063,0.1282,0.131,1.381,1.552,98.054,0.156,6.905,7.181,0.21,63568.,6000
156,9.2,0.18,0.2804,0.2035,0.1303,0.134,1.405,1.531,99.727,0.159,6.810,6.963,0.21,63634.,6000
157,11.0,0.22,0.3263,0.2001,0.1322,0.136,1.424,1.505,101.113,0.161,6.695,6.752,0.21,63715.,6000
158,12.9,0.25,0.3692,0.1960,0.1336,0.137,1.439,1.475,102.185,0.163,6.561,6.547,0.21,63810.,6000
159,14.7,0.29,0.4090,0.1915,0.1346,0.138,1.450,1.441,102.963,0.164,6.409,6.347,0.22,63920.,6000
160,16.5,0.32,0.4459,0.1864,0.1352,0.139,1.457,1.402,103.405,0.165,6.238,6.151,0.22,64045.,6000
161,18.4,0.36,0.4798,0.1807,0.1353,0.139,1.458,1.359,103.512,0.165,6.046,5.956,0.22,64183.,6000
162,20.2,0.40,0.5106,0.1743,0.1349,0.138,1.454,1.311,103.200,0.164,5.833,5.763,0.22,64336.,6000
163,22.0,0.43,0.5388,0.1671,0.1337,0.137,1.441,1.257,102.319,0.163,5.593,5.574,0.22,64503.,6000
164,23.9,0.47,0.5644,0.1591,0.1316,0.135,1.419,1.197,100.706,0.160,5.324,5.390,0.22,64684.,6000
165,25.7,0.50,0.5873,0.1507,0.1291,0.132,1.391,1.134,98.737,0.157,5.043,5.208,0.22,64880.,6000
166,27.6,0.54,0.6074,0.1421,0.1261,0.129,1.359,1.069,96.459,0.154,4.756,5.027,0.22,65088.,6000
167,29.4,0.57,0.6246,0.1333,0.1227,0.126,1.322,1.003,93.855,0.149,4.461,4.846,0.22,65311.,6000
168,31.2,0.61,0.6393,0.1243,0.1187,0.122,1.279,0.935,90.825,0.145,4.158,4.669,0.22,65547.,6000
169,33.1,0.65,0.6540,0.1150,0.1138,0.117,1.226,0.866,87.034,0.139,3.850,4.511,0.22,65796.,6000
170,34.9,0.68,0.6664,0.1056,0.1082,0.111,1.166,0.795,82.803,0.132,3.536,4.354,0.22,66059.,6000
171,36.7,0.72,0.6755,0.0961,0.1022,0.105,1.101,0.723,78.171,0.124,3.215,4.193,0.22,66335.,6000
172,38.6,0.75,0.6810,0.0862,0.0955,0.098,1.029,0.649,73.082,0.116,2.885,4.026,0.22,66623.,6000
173,40.4,0.79,0.6820,0.0762,0.0883,0.091,0.952,0.573,67.553,0.108,2.550,3.849,0.22,66925.,6000
174,42.3,0.83,0.6997,0.0664,0.0784,0.080,0.845,0.500,60.017,0.096,2.223,3.777,0.22,67239.,6000
175,44.1,0.86,0.6878,0.0559,0.0701,0.072,0.756,0.421,53.652,0.085,1.872,3.558,0.22,67565.,6000
176,45.9,0.90,0.6630,0.0452,0.0613,0.063,0.660,0.340,46.872,0.075,1.513,3.293,0.22,67904.,6000
177,47.8,0.93,0.6166,0.0343,0.0519,0.053,0.559,0.258,39.709,0.063,1.147,2.944,0.22,68254.,6000
178,49.6,0.97,0.5301,0.0230,0.0421,0.043,0.454,0.173,32.207,0.051,0.770,2.438,0.22,68617.,6000
179,51.4,1.01,0.3657,0.0115,0.0317,0.033,0.342,0.087,24.260,0.039,0.386,1.621,0.22,68991.,6000
180,53.3,1.04,-0.0013,0.0000,0.0206,0.021,0.221,0.000,15.724,0.025,-0.001,-0.006,0.23,69377.,6000
181,0.0,0.00,0.0000,0.2108,0.1123,0.183,1.647,2.158,136.431,0.186,9.601,7.176,0.25,74025.,7000
182,2.1,0.04,0.0654,0.2101,0.1155,0.188,1.695,2.152,140.369,0.191,9.571,6.953,0.25,74033.,7000
183,4.3,0.07,0.1266,0.2092,0.1187,0.193,1.742,2.142,144.249,0.197,9.527,6.735,0.25,74059.,7000
184,6.4,0.11,0.1840,0.2078,0.1218,0.198,1.786,2.128,147.930,0.202,9.465,6.525,0.25,74102.,7000
185,8.6,0.14,0.2378,0.2058,0.1245,0.203,1.826,2.108,151.227,0.206,9.376,6.323,0.25,74163.,7000
186,10.7,0.18,0.2881,0.2033,0.1268,0.207,1.860,2.082,154.071,0.210,9.259,6.128,0.25,74240.,7000
187,12.9,0.22,0.3352,0.2000,0.1287,0.210,1.888,2.049,156.390,0.213,9.113,5.942,0.25,74334.,7000
188,15.0,0.25,0.3791,0.1962,0.1302,0.212,1.910,2.010,158.222,0.216,8.939,5.761,0.25,74446.,7000
189,17.2,0.29,0.4199,0.1918,0.1314,0.214,1.927,1.965,159.598,0.218,8.739,5.583,0.25,74574.,7000
190,19.3,0.32,0.4576,0.1868,0.1321,0.215,1.938,1.913,160.480,0.219,8.510,5.408,0.25,74719.,7000
191,21.4,0.36,0.4920,0.1812,0.1324,0.216,1.942,1.856,160.823,0.219,8.254,5.234,0.25,74881.,7000
192,23.6,0.40,0.5237,0.1749,0.1321,0.215,1.937,1.791,160.453,0.219,7.968,5.064,0.25,75060.,7000
193,25.7,0.43,0.5534,0.1679,0.1309,0.213,1.920,1.720,158.990,0.217,7.649,4.906,0.25,75255.,7000
194,27.9,0.47,0.5815,0.1600,0.1286,0.209,1.886,1.639,156.212,0.213,7.288,4.758,0.25,75466.,7000
195,30.0,0.50,0.6072,0.1517,0.1257,0.205,1.844,1.554,152.753,0.208,6.910,4.613,0.25,75694.,7000
196,32.2,0.54,0.6349,0.1434,0.1218,0.198,1.787,1.469,147.977,0.202,6.533,4.502,0.25,75938.,7000
197,34.3,0.58,0.6557,0.1347,0.1181,0.192,1.733,1.379,143.498,0.196,6.134,4.359,0.25,76198.,7000
198,36.5,0.61,0.6740,0.1257,0.1139,0.186,1.672,1.287,138.439,0.189,5.725,4.217,0.25,76474.,7000
199,38.6,0.65,0.7012,0.1166,0.1076,0.175,1.579,1.194,130.747,0.178,5.313,4.144,0.26,76765.,7000
200,40.7,0.68,0.7151,0.1072,0.1024,0.167,1.502,1.098,124.382,0.170,4.883,4.003,0.26,77072.,7000
201,42.9,0.72,0.7259,0.0975,0.0966,0.157,1.417,0.999,117.352,0.160,4.443,3.860,0.26,77394.,7000
202,45.0,0.75,0.7330,0.0876,0.0902,0.147,1.324,0.897,109.635,0.150,3.992,3.713,0.26,77731.,7000
203,47.2,0.79,0.7359,0.0775,0.0833,0.136,1.222,0.794,101.212,0.138,3.532,3.558,0.26,78083.,7000
204,49.3,0.83,0.7331,0.0672,0.0758,0.123,1.112,0.688,92.066,0.126,3.061,3.390,0.26,78449.,7000
205,51.5,0.86,0.7224,0.0566,0.0676,0.110,0.992,0.580,82.190,0.112,2.580,3.201,0.26,78830.,7000
206,53.6,0.90,0.6987,0.0459,0.0590,0.096,0.865,0.470,71.678,0.098,2.090,2.973,0.26,79226.,7000
207,55.8,0.93,0.6574,0.0350,0.0498,0.081,0.730,0.359,60.462,0.082,1.595,2.690,0.26,79635.,7000
208,57.9,0.97,0.5684,0.0236,0.0403,0.066,0.591,0.242,48.973,0.067,1.075,2.239,0.26,80058.,7000
209,60.0,1.01,0.3953,0.0118,0.0302,0.049,0.442,0.121,36.634,0.050,0.539,1.502,0.26,80495.,7000
210,62.2,1.04,0.0001,0.0000,0.0196,0.032,0.288,0.000,23.854,0.033,0.000,0.001,0.26,80945.,7000
